ZPLOT2 ASCII
  4294A REV1.11
  DATE:     23 -100
  
  
  MEASURE PARAMETER: IMPEDANCE RESISTANCE - REACTANCE
  ADAPTER: NONE
  SWEEP TYPE: LOG FREQ
  NUMBER of POINTS: 256
  POINT DELAY TIME:  0 Sec
  SWEEP DELAY TIME:  0 Sec
  OSC LEVEL:  500 mVolt
  DC BIAS: OFF
  BW: 1
  SWEEP AVERAGING: 8
  POINT AVERAGING: 4
  
  
  TRACE: A
  FORMAT: LINEAR
  
  Frequency"	"Data Trace Real"	"Data Trace Imag
  Begin User Comments:        0
  End User Comments:          0
  Begin Information:          Cell Information
    Surface Area:             1
    Density:                  0
    Weight:                   0
    Polarity:                 0
    PolarityI:                0
    Corrosion Unit Type:      0
    Reference Type:           0
    Reference Potential:      0
    User-Defined Potential:   0
    Stern-Geary:              26
  End Information:            Cell Information
  Null Configuration:         0,2,0,1,0.1,65000
  Data Points:                253
  Freq(Hz)	Ampl	Bias	Time(Sec)	Z'(a)	Z''(b)	Aux	Err	Range
End Comments
1.000000E+03	0.0000E+00	0.0000E+00	1.000000E+00	5.078908E+03	-9.738511E+02	0.000000E+00	0	0
1.046183E+03	0.0000E+00	0.0000E+00	2.000000E+00	5.065776E+03	-9.442980E+02	0.000000E+00	0	0
1.094500E+03	0.0000E+00	0.0000E+00	3.000000E+00	5.052418E+03	-9.151013E+02	0.000000E+00	0	0
1.145048E+03	0.0000E+00	0.0000E+00	4.000000E+00	5.039441E+03	-8.880493E+02	0.000000E+00	0	0
1.197930E+03	0.0000E+00	0.0000E+00	5.000000E+00	5.026803E+03	-8.618267E+02	0.000000E+00	0	0
1.253254E+03	0.0000E+00	0.0000E+00	6.000000E+00	5.014490E+03	-8.368505E+02	0.000000E+00	0	0
1.311134E+03	0.0000E+00	0.0000E+00	7.000000E+00	5.001979E+03	-8.116862E+02	0.000000E+00	0	0
1.371687E+03	0.0000E+00	0.0000E+00	8.000000E+00	4.989931E+03	-7.878529E+02	0.000000E+00	0	0
1.435036E+03	0.0000E+00	0.0000E+00	9.000000E+00	4.978737E+03	-7.651025E+02	0.000000E+00	0	0
1.501311E+03	0.0000E+00	0.0000E+00	1.000000E+01	4.967156E+03	-7.427772E+02	0.000000E+00	0	0
1.570646E+03	0.0000E+00	0.0000E+00	1.100000E+01	4.956513E+03	-7.216501E+02	0.000000E+00	0	0
1.643184E+03	0.0000E+00	0.0000E+00	1.200000E+01	4.945343E+03	-7.007278E+02	0.000000E+00	0	0
1.719072E+03	0.0000E+00	0.0000E+00	1.300000E+01	4.934612E+03	-6.811438E+02	0.000000E+00	0	0
1.798465E+03	0.0000E+00	0.0000E+00	1.400000E+01	4.924206E+03	-6.626458E+02	0.000000E+00	0	0
1.881524E+03	0.0000E+00	0.0000E+00	1.500000E+01	4.914502E+03	-6.440920E+02	0.000000E+00	0	0
1.968419E+03	0.0000E+00	0.0000E+00	1.600000E+01	4.904362E+03	-6.261343E+02	0.000000E+00	0	0
2.059328E+03	0.0000E+00	0.0000E+00	1.700000E+01	4.894564E+03	-6.087446E+02	0.000000E+00	0	0
2.154435E+03	0.0000E+00	0.0000E+00	1.800000E+01	4.884665E+03	-5.923854E+02	0.000000E+00	0	0
2.253934E+03	0.0000E+00	0.0000E+00	1.900000E+01	4.874837E+03	-5.767957E+02	0.000000E+00	0	0
2.358028E+03	0.0000E+00	0.0000E+00	2.000000E+01	4.865293E+03	-5.606174E+02	0.000000E+00	0	0
2.466930E+03	0.0000E+00	0.0000E+00	2.100000E+01	4.855875E+03	-5.455936E+02	0.000000E+00	0	0
2.580862E+03	0.0000E+00	0.0000E+00	2.200000E+01	4.847281E+03	-5.307361E+02	0.000000E+00	0	0
2.700055E+03	0.0000E+00	0.0000E+00	2.300000E+01	4.838453E+03	-5.172371E+02	0.000000E+00	0	0
2.824752E+03	0.0000E+00	0.0000E+00	2.400000E+01	4.829672E+03	-5.041023E+02	0.000000E+00	0	0
2.955209E+03	0.0000E+00	0.0000E+00	2.500000E+01	4.821308E+03	-4.905057E+02	0.000000E+00	0	0
3.091691E+03	0.0000E+00	0.0000E+00	2.600000E+01	4.812980E+03	-4.777642E+02	0.000000E+00	0	0
3.234476E+03	0.0000E+00	0.0000E+00	2.700000E+01	4.804662E+03	-4.657245E+02	0.000000E+00	0	0
3.383855E+03	0.0000E+00	0.0000E+00	2.800000E+01	4.796336E+03	-4.535685E+02	0.000000E+00	0	0
3.540133E+03	0.0000E+00	0.0000E+00	2.900000E+01	4.788098E+03	-4.426326E+02	0.000000E+00	0	0
3.703629E+03	0.0000E+00	0.0000E+00	3.000000E+01	4.779904E+03	-4.313912E+02	0.000000E+00	0	0
3.874675E+03	0.0000E+00	0.0000E+00	3.100000E+01	4.771723E+03	-4.188962E+02	0.000000E+00	0	0
4.053621E+03	0.0000E+00	0.0000E+00	3.200000E+01	4.763555E+03	-4.094935E+02	0.000000E+00	0	0
4.240831E+03	0.0000E+00	0.0000E+00	3.300000E+01	4.755806E+03	-3.985286E+02	0.000000E+00	0	0
4.436687E+03	0.0000E+00	0.0000E+00	3.400000E+01	4.748468E+03	-3.883393E+02	0.000000E+00	0	0
4.641589E+03	0.0000E+00	0.0000E+00	3.500000E+01	4.741912E+03	-3.793748E+02	0.000000E+00	0	0
4.855953E+03	0.0000E+00	0.0000E+00	3.600000E+01	4.734205E+03	-3.694206E+02	0.000000E+00	0	0
5.080218E+03	0.0000E+00	0.0000E+00	3.700000E+01	4.726172E+03	-3.596736E+02	0.000000E+00	0	0
5.314840E+03	0.0000E+00	0.0000E+00	3.800000E+01	4.719354E+03	-3.516036E+02	0.000000E+00	0	0
5.560298E+03	0.0000E+00	0.0000E+00	3.900000E+01	4.712576E+03	-3.423369E+02	0.000000E+00	0	0
5.817091E+03	0.0000E+00	0.0000E+00	4.000000E+01	4.705579E+03	-3.330175E+02	0.000000E+00	0	0
6.085745E+03	0.0000E+00	0.0000E+00	4.100000E+01	4.698423E+03	-3.251625E+02	0.000000E+00	0	0
6.366805E+03	0.0000E+00	0.0000E+00	4.200000E+01	4.691997E+03	-3.171328E+02	0.000000E+00	0	0
6.660846E+03	0.0000E+00	0.0000E+00	4.300000E+01	4.686304E+03	-3.090854E+02	0.000000E+00	0	0
6.968467E+03	0.0000E+00	0.0000E+00	4.400000E+01	4.680452E+03	-2.998541E+02	0.000000E+00	0	0
7.290295E+03	0.0000E+00	0.0000E+00	4.500000E+01	4.673529E+03	-2.931868E+02	0.000000E+00	0	0
7.626986E+03	0.0000E+00	0.0000E+00	4.600000E+01	4.667547E+03	-2.839158E+02	0.000000E+00	0	0
7.979226E+03	0.0000E+00	0.0000E+00	4.700000E+01	4.662417E+03	-2.749326E+02	0.000000E+00	0	0
8.347734E+03	0.0000E+00	0.0000E+00	4.800000E+01	4.655875E+03	-2.702041E+02	0.000000E+00	0	0
8.733262E+03	0.0000E+00	0.0000E+00	4.900000E+01	4.650129E+03	-2.617561E+02	0.000000E+00	0	0
9.136594E+03	0.0000E+00	0.0000E+00	5.000000E+01	4.646179E+03	-2.544657E+02	0.000000E+00	0	0
9.558553E+03	0.0000E+00	0.0000E+00	5.100000E+01	4.640486E+03	-2.477865E+02	0.000000E+00	0	0
1.000000E+04	0.0000E+00	0.0000E+00	5.200000E+01	4.634857E+03	-2.412171E+02	0.000000E+00	0	0
1.046183E+04	0.0000E+00	0.0000E+00	5.300000E+01	4.629424E+03	-2.347030E+02	0.000000E+00	0	0
1.094500E+04	0.0000E+00	0.0000E+00	5.400000E+01	4.624877E+03	-2.281342E+02	0.000000E+00	0	0
1.145048E+04	0.0000E+00	0.0000E+00	5.500000E+01	4.619062E+03	-2.209944E+02	0.000000E+00	0	0
1.197930E+04	0.0000E+00	0.0000E+00	5.600000E+01	4.616251E+03	-2.160644E+02	0.000000E+00	0	0
1.253254E+04	0.0000E+00	0.0000E+00	5.700000E+01	4.611377E+03	-2.085182E+02	0.000000E+00	0	0
1.311134E+04	0.0000E+00	0.0000E+00	5.800000E+01	4.607778E+03	-2.026689E+02	0.000000E+00	0	0
1.371687E+04	0.0000E+00	0.0000E+00	5.900000E+01	4.603055E+03	-1.957334E+02	0.000000E+00	0	0
1.435036E+04	0.0000E+00	0.0000E+00	6.000000E+01	4.598955E+03	-1.913286E+02	0.000000E+00	0	0
1.501311E+04	0.0000E+00	0.0000E+00	6.100000E+01	4.596465E+03	-1.856038E+02	0.000000E+00	0	0
1.570646E+04	0.0000E+00	0.0000E+00	6.200000E+01	4.592395E+03	-1.789940E+02	0.000000E+00	0	0
1.643184E+04	0.0000E+00	0.0000E+00	6.300000E+01	4.589027E+03	-1.731384E+02	0.000000E+00	0	0
1.719072E+04	0.0000E+00	0.0000E+00	6.400000E+01	4.586438E+03	-1.688057E+02	0.000000E+00	0	0
1.798465E+04	0.0000E+00	0.0000E+00	6.500000E+01	4.582961E+03	-1.629085E+02	0.000000E+00	0	0
1.881524E+04	0.0000E+00	0.0000E+00	6.600000E+01	4.579730E+03	-1.570036E+02	0.000000E+00	0	0
1.968419E+04	0.0000E+00	0.0000E+00	6.700000E+01	4.576578E+03	-1.535005E+02	0.000000E+00	0	0
2.059328E+04	0.0000E+00	0.0000E+00	6.800000E+01	4.574277E+03	-1.485278E+02	0.000000E+00	0	0
2.154435E+04	0.0000E+00	0.0000E+00	6.900000E+01	4.571434E+03	-1.432189E+02	0.000000E+00	0	0
2.253934E+04	0.0000E+00	0.0000E+00	7.000000E+01	4.569312E+03	-1.395248E+02	0.000000E+00	0	0
2.358028E+04	0.0000E+00	0.0000E+00	7.100000E+01	4.566914E+03	-1.334229E+02	0.000000E+00	0	0
2.466930E+04	0.0000E+00	0.0000E+00	7.200000E+01	4.564401E+03	-1.306113E+02	0.000000E+00	0	0
2.580862E+04	0.0000E+00	0.0000E+00	7.300000E+01	4.562746E+03	-1.265472E+02	0.000000E+00	0	0
2.700055E+04	0.0000E+00	0.0000E+00	7.400000E+01	4.559814E+03	-1.221834E+02	0.000000E+00	0	0
2.824752E+04	0.0000E+00	0.0000E+00	7.500000E+01	4.558126E+03	-1.177817E+02	0.000000E+00	0	0
2.955209E+04	0.0000E+00	0.0000E+00	7.600000E+01	4.556056E+03	-1.137384E+02	0.000000E+00	0	0
3.091691E+04	0.0000E+00	0.0000E+00	7.700000E+01	4.554814E+03	-1.095752E+02	0.000000E+00	0	0
3.234476E+04	0.0000E+00	0.0000E+00	7.800000E+01	4.553795E+03	-1.059268E+02	0.000000E+00	0	0
3.383855E+04	0.0000E+00	0.0000E+00	7.900000E+01	4.552887E+03	-1.028279E+02	0.000000E+00	0	0
3.540133E+04	0.0000E+00	0.0000E+00	8.000000E+01	4.551125E+03	-9.854224E+01	0.000000E+00	0	0
3.703629E+04	0.0000E+00	0.0000E+00	8.100000E+01	4.549377E+03	-9.733119E+01	0.000000E+00	0	0
3.874675E+04	0.0000E+00	0.0000E+00	8.200000E+01	4.547145E+03	-9.414395E+01	0.000000E+00	0	0
4.053621E+04	0.0000E+00	0.0000E+00	8.300000E+01	4.546078E+03	-9.081776E+01	0.000000E+00	0	0
4.240831E+04	0.0000E+00	0.0000E+00	8.400000E+01	4.545871E+03	-8.759155E+01	0.000000E+00	0	0
4.436687E+04	0.0000E+00	0.0000E+00	8.500000E+01	4.543893E+03	-8.557915E+01	0.000000E+00	0	0
4.641589E+04	0.0000E+00	0.0000E+00	8.600000E+01	4.542907E+03	-8.226073E+01	0.000000E+00	0	0
4.855953E+04	0.0000E+00	0.0000E+00	8.700000E+01	4.543197E+03	-7.930284E+01	0.000000E+00	0	0
5.080218E+04	0.0000E+00	0.0000E+00	8.800000E+01	4.541557E+03	-7.797034E+01	0.000000E+00	0	0
5.314840E+04	0.0000E+00	0.0000E+00	8.900000E+01	4.541115E+03	-7.546361E+01	0.000000E+00	0	0
5.560298E+04	0.0000E+00	0.0000E+00	9.000000E+01	4.540207E+03	-7.336006E+01	0.000000E+00	0	0
5.817091E+04	0.0000E+00	0.0000E+00	9.100000E+01	4.539650E+03	-7.189447E+01	0.000000E+00	0	0
6.085745E+04	0.0000E+00	0.0000E+00	9.200000E+01	4.538465E+03	-6.935013E+01	0.000000E+00	0	0
6.366805E+04	0.0000E+00	0.0000E+00	9.300000E+01	4.537920E+03	-6.836626E+01	0.000000E+00	0	0
6.660846E+04	0.0000E+00	0.0000E+00	9.400000E+01	4.537385E+03	-6.651202E+01	0.000000E+00	0	0
6.968467E+04	0.0000E+00	0.0000E+00	9.500000E+01	4.536639E+03	-6.558389E+01	0.000000E+00	0	0
7.290295E+04	0.0000E+00	0.0000E+00	9.600000E+01	4.536338E+03	-6.486882E+01	0.000000E+00	0	0
7.626986E+04	0.0000E+00	0.0000E+00	9.700000E+01	4.535259E+03	-6.263977E+01	0.000000E+00	0	0
7.979226E+04	0.0000E+00	0.0000E+00	9.800000E+01	4.534719E+03	-6.144918E+01	0.000000E+00	0	0
8.347735E+04	0.0000E+00	0.0000E+00	9.900000E+01	4.534309E+03	-5.910521E+01	0.000000E+00	0	0
8.733262E+04	0.0000E+00	0.0000E+00	1.000000E+02	4.533798E+03	-5.977699E+01	0.000000E+00	0	0
9.136594E+04	0.0000E+00	0.0000E+00	1.010000E+02	4.533474E+03	-5.914215E+01	0.000000E+00	0	0
9.558553E+04	0.0000E+00	0.0000E+00	1.020000E+02	4.533143E+03	-5.761587E+01	0.000000E+00	0	0
1.000000E+05	0.0000E+00	0.0000E+00	1.030000E+02	4.532867E+03	-5.480077E+01	0.000000E+00	0	0
1.046183E+05	0.0000E+00	0.0000E+00	1.040000E+02	4.532034E+03	-5.505687E+01	0.000000E+00	0	0
1.094500E+05	0.0000E+00	0.0000E+00	1.050000E+02	4.531556E+03	-5.520036E+01	0.000000E+00	0	0
1.145048E+05	0.0000E+00	0.0000E+00	1.060000E+02	4.531080E+03	-5.508720E+01	0.000000E+00	0	0
1.197930E+05	0.0000E+00	0.0000E+00	1.070000E+02	4.530820E+03	-5.383212E+01	0.000000E+00	0	0
1.253254E+05	0.0000E+00	0.0000E+00	1.080000E+02	4.530956E+03	-5.498659E+01	0.000000E+00	0	0
1.311134E+05	0.0000E+00	0.0000E+00	1.090000E+02	4.530260E+03	-5.476817E+01	0.000000E+00	0	0
1.371687E+05	0.0000E+00	0.0000E+00	1.100000E+02	4.529896E+03	-5.381259E+01	0.000000E+00	0	0
1.435036E+05	0.0000E+00	0.0000E+00	1.110000E+02	4.529425E+03	-5.389295E+01	0.000000E+00	0	0
1.501311E+05	0.0000E+00	0.0000E+00	1.120000E+02	4.528969E+03	-5.507732E+01	0.000000E+00	0	0
1.570646E+05	0.0000E+00	0.0000E+00	1.130000E+02	4.528624E+03	-5.450650E+01	0.000000E+00	0	0
1.643184E+05	0.0000E+00	0.0000E+00	1.140000E+02	4.528615E+03	-5.448111E+01	0.000000E+00	0	0
1.719072E+05	0.0000E+00	0.0000E+00	1.150000E+02	4.528490E+03	-5.496107E+01	0.000000E+00	0	0
1.798465E+05	0.0000E+00	0.0000E+00	1.160000E+02	4.527758E+03	-5.573606E+01	0.000000E+00	0	0
1.881524E+05	0.0000E+00	0.0000E+00	1.170000E+02	4.527441E+03	-5.757510E+01	0.000000E+00	0	0
1.968419E+05	0.0000E+00	0.0000E+00	1.180000E+02	4.527200E+03	-5.746568E+01	0.000000E+00	0	0
2.059328E+05	0.0000E+00	0.0000E+00	1.190000E+02	4.526995E+03	-5.780447E+01	0.000000E+00	0	0
2.154435E+05	0.0000E+00	0.0000E+00	1.200000E+02	4.526460E+03	-5.868206E+01	0.000000E+00	0	0
2.253934E+05	0.0000E+00	0.0000E+00	1.210000E+02	4.526021E+03	-6.040321E+01	0.000000E+00	0	0
2.358028E+05	0.0000E+00	0.0000E+00	1.220000E+02	4.525754E+03	-6.095464E+01	0.000000E+00	0	0
2.466930E+05	0.0000E+00	0.0000E+00	1.230000E+02	4.525693E+03	-6.203761E+01	0.000000E+00	0	0
2.580862E+05	0.0000E+00	0.0000E+00	1.240000E+02	4.524983E+03	-6.388367E+01	0.000000E+00	0	0
2.700055E+05	0.0000E+00	0.0000E+00	1.250000E+02	4.524339E+03	-6.537163E+01	0.000000E+00	0	0
2.824752E+05	0.0000E+00	0.0000E+00	1.260000E+02	4.523959E+03	-6.751126E+01	0.000000E+00	0	0
2.955209E+05	0.0000E+00	0.0000E+00	1.270000E+02	4.523445E+03	-6.860716E+01	0.000000E+00	0	0
3.091691E+05	0.0000E+00	0.0000E+00	1.280000E+02	4.523453E+03	-7.016579E+01	0.000000E+00	0	0
3.234476E+05	0.0000E+00	0.0000E+00	1.290000E+02	4.522522E+03	-7.244971E+01	0.000000E+00	0	0
3.383855E+05	0.0000E+00	0.0000E+00	1.300000E+02	4.522000E+03	-7.462540E+01	0.000000E+00	0	0
3.540133E+05	0.0000E+00	0.0000E+00	1.310000E+02	4.521653E+03	-7.683260E+01	0.000000E+00	0	0
3.703629E+05	0.0000E+00	0.0000E+00	1.320000E+02	4.521033E+03	-8.007213E+01	0.000000E+00	0	0
3.874675E+05	0.0000E+00	0.0000E+00	1.330000E+02	4.520600E+03	-8.077292E+01	0.000000E+00	0	0
4.053621E+05	0.0000E+00	0.0000E+00	1.340000E+02	4.519465E+03	-8.361317E+01	0.000000E+00	0	0
4.240831E+05	0.0000E+00	0.0000E+00	1.350000E+02	4.518811E+03	-8.666199E+01	0.000000E+00	0	0
4.436687E+05	0.0000E+00	0.0000E+00	1.360000E+02	4.518168E+03	-8.915559E+01	0.000000E+00	0	0
4.641589E+05	0.0000E+00	0.0000E+00	1.370000E+02	4.517339E+03	-9.205211E+01	0.000000E+00	0	0
4.855953E+05	0.0000E+00	0.0000E+00	1.380000E+02	4.515782E+03	-9.503513E+01	0.000000E+00	0	0
5.080218E+05	0.0000E+00	0.0000E+00	1.390000E+02	4.515236E+03	-9.890956E+01	0.000000E+00	0	0
5.314840E+05	0.0000E+00	0.0000E+00	1.400000E+02	4.514331E+03	-1.018885E+02	0.000000E+00	0	0
5.560298E+05	0.0000E+00	0.0000E+00	1.410000E+02	4.512951E+03	-1.055368E+02	0.000000E+00	0	0
5.817091E+05	0.0000E+00	0.0000E+00	1.420000E+02	4.512074E+03	-1.096707E+02	0.000000E+00	0	0
6.085745E+05	0.0000E+00	0.0000E+00	1.430000E+02	4.510818E+03	-1.137666E+02	0.000000E+00	0	0
6.366805E+05	0.0000E+00	0.0000E+00	1.440000E+02	4.509773E+03	-1.174704E+02	0.000000E+00	0	0
6.660846E+05	0.0000E+00	0.0000E+00	1.450000E+02	4.508757E+03	-1.218424E+02	0.000000E+00	0	0
6.968467E+05	0.0000E+00	0.0000E+00	1.460000E+02	4.506971E+03	-1.263063E+02	0.000000E+00	0	0
7.290295E+05	0.0000E+00	0.0000E+00	1.470000E+02	4.505435E+03	-1.297698E+02	0.000000E+00	0	0
7.626986E+05	0.0000E+00	0.0000E+00	1.480000E+02	4.503891E+03	-1.350487E+02	0.000000E+00	0	0
7.979226E+05	0.0000E+00	0.0000E+00	1.490000E+02	4.502289E+03	-1.397441E+02	0.000000E+00	0	0
8.347734E+05	0.0000E+00	0.0000E+00	1.500000E+02	4.501027E+03	-1.449336E+02	0.000000E+00	0	0
8.733262E+05	0.0000E+00	0.0000E+00	1.510000E+02	4.499171E+03	-1.507306E+02	0.000000E+00	0	0
9.136594E+05	0.0000E+00	0.0000E+00	1.520000E+02	4.497012E+03	-1.559338E+02	0.000000E+00	0	0
9.558553E+05	0.0000E+00	0.0000E+00	1.530000E+02	4.494762E+03	-1.615472E+02	0.000000E+00	0	0
1.000000E+06	0.0000E+00	0.0000E+00	1.540000E+02	4.492238E+03	-1.667313E+02	0.000000E+00	0	0
1.046183E+06	0.0000E+00	0.0000E+00	1.550000E+02	4.489930E+03	-1.740033E+02	0.000000E+00	0	0
1.094500E+06	0.0000E+00	0.0000E+00	1.560000E+02	4.487219E+03	-1.794423E+02	0.000000E+00	0	0
1.145048E+06	0.0000E+00	0.0000E+00	1.570000E+02	4.484682E+03	-1.868320E+02	0.000000E+00	0	0
1.197930E+06	0.0000E+00	0.0000E+00	1.580000E+02	4.482014E+03	-1.936162E+02	0.000000E+00	0	0
1.253254E+06	0.0000E+00	0.0000E+00	1.590000E+02	4.479420E+03	-2.000548E+02	0.000000E+00	0	0
1.311134E+06	0.0000E+00	0.0000E+00	1.600000E+02	4.476480E+03	-2.075603E+02	0.000000E+00	0	0
1.371687E+06	0.0000E+00	0.0000E+00	1.610000E+02	4.473568E+03	-2.146330E+02	0.000000E+00	0	0
1.435036E+06	0.0000E+00	0.0000E+00	1.620000E+02	4.470350E+03	-2.221273E+02	0.000000E+00	0	0
1.501311E+06	0.0000E+00	0.0000E+00	1.630000E+02	4.467326E+03	-2.288008E+02	0.000000E+00	0	0
1.570646E+06	0.0000E+00	0.0000E+00	1.640000E+02	4.463872E+03	-2.374413E+02	0.000000E+00	0	0
1.643184E+06	0.0000E+00	0.0000E+00	1.650000E+02	4.460557E+03	-2.453956E+02	0.000000E+00	0	0
1.719072E+06	0.0000E+00	0.0000E+00	1.660000E+02	4.457204E+03	-2.539794E+02	0.000000E+00	0	0
1.798465E+06	0.0000E+00	0.0000E+00	1.670000E+02	4.453486E+03	-2.627800E+02	0.000000E+00	0	0
1.881524E+06	0.0000E+00	0.0000E+00	1.680000E+02	4.449865E+03	-2.719724E+02	0.000000E+00	0	0
1.968419E+06	0.0000E+00	0.0000E+00	1.690000E+02	4.445504E+03	-2.813570E+02	0.000000E+00	0	0
2.059328E+06	0.0000E+00	0.0000E+00	1.700000E+02	4.441453E+03	-2.912126E+02	0.000000E+00	0	0
2.154435E+06	0.0000E+00	0.0000E+00	1.710000E+02	4.437311E+03	-3.009596E+02	0.000000E+00	0	0
2.253934E+06	0.0000E+00	0.0000E+00	1.720000E+02	4.433150E+03	-3.115065E+02	0.000000E+00	0	0
2.358028E+06	0.0000E+00	0.0000E+00	1.730000E+02	4.429023E+03	-3.221882E+02	0.000000E+00	0	0
2.466930E+06	0.0000E+00	0.0000E+00	1.740000E+02	4.424521E+03	-3.332692E+02	0.000000E+00	0	0
2.580862E+06	0.0000E+00	0.0000E+00	1.750000E+02	4.419799E+03	-3.449752E+02	0.000000E+00	0	0
2.700055E+06	0.0000E+00	0.0000E+00	1.760000E+02	4.414473E+03	-3.569512E+02	0.000000E+00	0	0
2.824752E+06	0.0000E+00	0.0000E+00	1.770000E+02	4.409385E+03	-3.697166E+02	0.000000E+00	0	0
2.955209E+06	0.0000E+00	0.0000E+00	1.780000E+02	4.404355E+03	-3.828648E+02	0.000000E+00	0	0
3.091691E+06	0.0000E+00	0.0000E+00	1.790000E+02	4.399026E+03	-3.962679E+02	0.000000E+00	0	0
3.234476E+06	0.0000E+00	0.0000E+00	1.800000E+02	4.393320E+03	-4.099050E+02	0.000000E+00	0	0
3.383855E+06	0.0000E+00	0.0000E+00	1.810000E+02	4.387324E+03	-4.246927E+02	0.000000E+00	0	0
3.540133E+06	0.0000E+00	0.0000E+00	1.820000E+02	4.381138E+03	-4.401434E+02	0.000000E+00	0	0
3.703629E+06	0.0000E+00	0.0000E+00	1.830000E+02	4.374594E+03	-4.556267E+02	0.000000E+00	0	0
3.874675E+06	0.0000E+00	0.0000E+00	1.840000E+02	4.368012E+03	-4.720729E+02	0.000000E+00	0	0
4.053621E+06	0.0000E+00	0.0000E+00	1.850000E+02	4.360863E+03	-4.893623E+02	0.000000E+00	0	0
4.240831E+06	0.0000E+00	0.0000E+00	1.860000E+02	4.353229E+03	-5.072847E+02	0.000000E+00	0	0
4.436687E+06	0.0000E+00	0.0000E+00	1.870000E+02	4.345527E+03	-5.253833E+02	0.000000E+00	0	0
4.641589E+06	0.0000E+00	0.0000E+00	1.880000E+02	4.337146E+03	-5.442678E+02	0.000000E+00	0	0
4.855953E+06	0.0000E+00	0.0000E+00	1.890000E+02	4.328375E+03	-5.641188E+02	0.000000E+00	0	0
5.080218E+06	0.0000E+00	0.0000E+00	1.900000E+02	4.318898E+03	-5.845867E+02	0.000000E+00	0	0
5.314840E+06	0.0000E+00	0.0000E+00	1.910000E+02	4.309270E+03	-6.059124E+02	0.000000E+00	0	0
5.560298E+06	0.0000E+00	0.0000E+00	1.920000E+02	4.299057E+03	-6.282877E+02	0.000000E+00	0	0
5.817091E+06	0.0000E+00	0.0000E+00	1.930000E+02	4.288135E+03	-6.507969E+02	0.000000E+00	0	0
6.085745E+06	0.0000E+00	0.0000E+00	1.940000E+02	4.276652E+03	-6.742687E+02	0.000000E+00	0	0
6.366805E+06	0.0000E+00	0.0000E+00	1.950000E+02	4.264392E+03	-6.987278E+02	0.000000E+00	0	0
6.660846E+06	0.0000E+00	0.0000E+00	1.960000E+02	4.251331E+03	-7.236334E+02	0.000000E+00	0	0
6.968467E+06	0.0000E+00	0.0000E+00	1.970000E+02	4.237794E+03	-7.496929E+02	0.000000E+00	0	0
7.290295E+06	0.0000E+00	0.0000E+00	1.980000E+02	4.223338E+03	-7.763297E+02	0.000000E+00	0	0
7.626986E+06	0.0000E+00	0.0000E+00	1.990000E+02	4.208369E+03	-8.037100E+02	0.000000E+00	0	0
7.979226E+06	0.0000E+00	0.0000E+00	2.000000E+02	4.193786E+03	-8.319591E+02	0.000000E+00	0	0
8.347734E+06	0.0000E+00	0.0000E+00	2.010000E+02	4.179801E+03	-8.603442E+02	0.000000E+00	0	0
9.558553E+06	0.0000E+00	0.0000E+00	2.040000E+02	4.111309E+03	-9.707135E+02	0.000000E+00	0	0
1.000000E+07	0.0000E+00	0.0000E+00	2.050000E+02	4.087376E+03	-1.002364E+03	0.000000E+00	0	0
1.046183E+07	0.0000E+00	0.0000E+00	2.060000E+02	4.060771E+03	-1.034993E+03	0.000000E+00	0	0
1.094500E+07	0.0000E+00	0.0000E+00	2.070000E+02	4.034579E+03	-1.068036E+03	0.000000E+00	0	0
1.145048E+07	0.0000E+00	0.0000E+00	2.080000E+02	4.007019E+03	-1.102783E+03	0.000000E+00	0	0
1.197930E+07	0.0000E+00	0.0000E+00	2.090000E+02	3.978313E+03	-1.138151E+03	0.000000E+00	0	0
1.253254E+07	0.0000E+00	0.0000E+00	2.100000E+02	3.947640E+03	-1.175151E+03	0.000000E+00	0	0
1.311134E+07	0.0000E+00	0.0000E+00	2.110000E+02	3.914420E+03	-1.213038E+03	0.000000E+00	0	0
1.371687E+07	0.0000E+00	0.0000E+00	2.120000E+02	3.879297E+03	-1.251172E+03	0.000000E+00	0	0
1.435036E+07	0.0000E+00	0.0000E+00	2.130000E+02	3.841714E+03	-1.289855E+03	0.000000E+00	0	0
1.501311E+07	0.0000E+00	0.0000E+00	2.140000E+02	3.835996E+03	-1.283979E+03	0.000000E+00	0	0
1.570646E+07	0.0000E+00	0.0000E+00	2.150000E+02	3.797561E+03	-1.321316E+03	0.000000E+00	0	0
1.643184E+07	0.0000E+00	0.0000E+00	2.160000E+02	3.757356E+03	-1.358636E+03	0.000000E+00	0	0
1.719072E+07	0.0000E+00	0.0000E+00	2.170000E+02	3.715029E+03	-1.396402E+03	0.000000E+00	0	0
1.798465E+07	0.0000E+00	0.0000E+00	2.180000E+02	3.669776E+03	-1.435723E+03	0.000000E+00	0	0
1.881524E+07	0.0000E+00	0.0000E+00	2.190000E+02	3.623396E+03	-1.471817E+03	0.000000E+00	0	0
1.968419E+07	0.0000E+00	0.0000E+00	2.200000E+02	3.574040E+03	-1.509019E+03	0.000000E+00	0	0
2.059328E+07	0.0000E+00	0.0000E+00	2.210000E+02	3.522817E+03	-1.544631E+03	0.000000E+00	0	0
2.154435E+07	0.0000E+00	0.0000E+00	2.220000E+02	3.469884E+03	-1.580263E+03	0.000000E+00	0	0
2.253934E+07	0.0000E+00	0.0000E+00	2.230000E+02	3.413840E+03	-1.617147E+03	0.000000E+00	0	0
2.358028E+07	0.0000E+00	0.0000E+00	2.240000E+02	3.355834E+03	-1.651479E+03	0.000000E+00	0	0
2.466930E+07	0.0000E+00	0.0000E+00	2.250000E+02	3.297464E+03	-1.685284E+03	0.000000E+00	0	0
2.580862E+07	0.0000E+00	0.0000E+00	2.260000E+02	3.236841E+03	-1.724288E+03	0.000000E+00	0	0
2.700055E+07	0.0000E+00	0.0000E+00	2.270000E+02	3.168927E+03	-1.760923E+03	0.000000E+00	0	0
2.824752E+07	0.0000E+00	0.0000E+00	2.280000E+02	3.089638E+03	-1.794760E+03	0.000000E+00	0	0
2.955209E+07	0.0000E+00	0.0000E+00	2.290000E+02	3.014169E+03	-1.814833E+03	0.000000E+00	0	0
3.091691E+07	0.0000E+00	0.0000E+00	2.300000E+02	2.940075E+03	-1.838014E+03	0.000000E+00	0	0
3.234476E+07	0.0000E+00	0.0000E+00	2.310000E+02	2.866463E+03	-1.857618E+03	0.000000E+00	0	0
3.383855E+07	0.0000E+00	0.0000E+00	2.320000E+02	2.791044E+03	-1.876368E+03	0.000000E+00	0	0
3.540133E+07	0.0000E+00	0.0000E+00	2.330000E+02	2.713946E+03	-1.894044E+03	0.000000E+00	0	0
3.703629E+07	0.0000E+00	0.0000E+00	2.340000E+02	2.635482E+03	-1.909572E+03	0.000000E+00	0	0
3.874675E+07	0.0000E+00	0.0000E+00	2.350000E+02	2.555791E+03	-1.921887E+03	0.000000E+00	0	0
4.053621E+07	0.0000E+00	0.0000E+00	2.360000E+02	2.475848E+03	-1.932468E+03	0.000000E+00	0	0
4.240831E+07	0.0000E+00	0.0000E+00	2.370000E+02	2.396410E+03	-1.942024E+03	0.000000E+00	0	0
4.436687E+07	0.0000E+00	0.0000E+00	2.380000E+02	2.314338E+03	-1.954026E+03	0.000000E+00	0	0
4.855953E+07	0.0000E+00	0.0000E+00	2.400000E+02	2.128765E+03	-1.953535E+03	0.000000E+00	0	0
5.080218E+07	0.0000E+00	0.0000E+00	2.410000E+02	2.044156E+03	-1.949217E+03	0.000000E+00	0	0
5.314840E+07	0.0000E+00	0.0000E+00	2.420000E+02	1.957387E+03	-1.939144E+03	0.000000E+00	0	0
5.560298E+07	0.0000E+00	0.0000E+00	2.430000E+02	1.868762E+03	-1.930528E+03	0.000000E+00	0	0
5.817091E+07	0.0000E+00	0.0000E+00	2.440000E+02	1.782220E+03	-1.912709E+03	0.000000E+00	0	0
6.085745E+07	0.0000E+00	0.0000E+00	2.450000E+02	1.694378E+03	-1.894772E+03	0.000000E+00	0	0
6.366805E+07	0.0000E+00	0.0000E+00	2.460000E+02	1.612346E+03	-1.875409E+03	0.000000E+00	0	0
6.660846E+07	0.0000E+00	0.0000E+00	2.470000E+02	1.517219E+03	-1.852627E+03	0.000000E+00	0	0
6.968467E+07	0.0000E+00	0.0000E+00	2.480000E+02	1.432698E+03	-1.815602E+03	0.000000E+00	0	0
7.290295E+07	0.0000E+00	0.0000E+00	2.490000E+02	1.347130E+03	-1.778716E+03	0.000000E+00	0	0
7.626986E+07	0.0000E+00	0.0000E+00	2.500000E+02	1.267094E+03	-1.737025E+03	0.000000E+00	0	0
7.979226E+07	0.0000E+00	0.0000E+00	2.510000E+02	1.190976E+03	-1.689896E+03	0.000000E+00	0	0
8.347734E+07	0.0000E+00	0.0000E+00	2.520000E+02	1.119946E+03	-1.643635E+03	0.000000E+00	0	0
8.733262E+07	0.0000E+00	0.0000E+00	2.530000E+02	1.050198E+03	-1.593106E+03	0.000000E+00	0	0
9.136594E+07	0.0000E+00	0.0000E+00	2.540000E+02	9.885892E+02	-1.541804E+03	0.000000E+00	0	0
9.558553E+07	0.0000E+00	0.0000E+00	2.550000E+02	9.286375E+02	-1.492313E+03	0.000000E+00	0	0
1.000000E+08	0.0000E+00	0.0000E+00	2.560000E+02	8.685759E+02	-1.438346E+03	0.000000E+00	0	0
