Bottle Number:0
11/17/2017 10:53:28 AM
Frequency (Hz),Impedance(Ohms),Phase(Degrees)
1000,8676.59372857,-7746.89979651
1059.254,8614.44201599,-7343.95817417
1122.018,8556.48441708,-6979.59389361
1188.502,8501.97907436,-6639.56624254
1258.925,8450.51465907,-6319.37642686
1333.521,8401.9427014,-6016.2550325
1412.538,8355.93906027,-5729.23367413
1496.236,8312.42170048,-5456.63249369
1584.893,8271.06993824,-5197.36560311
1678.804,8231.95960419,-4951.06565254
1778.279,8194.78600136,-4716.80630774
1883.649,8159.48719227,-4494.03097221
1995.262,8125.98016571,-4282.13250436
2113.489,8094.09131868,-4080.10592138
2238.721,8063.72106846,-3887.94975527
2371.374,8034.6493152,-3705.15224167
2511.886,8006.85291693,-3531.23506061
2660.725,7980.28259855,-3365.8891074
2818.383,7954.77196207,-3208.71668475
2985.383,7930.329023,-3059.54914215
3162.278,7906.78163101,-2917.90893417
3349.654,7884.13756896,-2783.37082687
3548.134,7862.20782185,-2655.40756808
3758.374,7841.0562223,-2533.96183631
3981.072,7820.53098581,-2418.74269421
4216.965,7800.51268595,-2309.57112755
4466.836,7780.95629923,-2206.10006835
4731.513,7761.87755421,-2108.11652842
5011.872,7743.17299904,-2015.09277285
5308.844,7724.72581939,-1926.9518317
5623.413,7706.54739508,-1843.43588884
5956.621,7688.63616368,-1764.35124996
6309.573,7670.76304785,-1689.41693536
6683.439,7653.13593134,-1618.55917488
7079.458,7635.62135447,-1551.55785244
7498.942,7618.16619709,-1487.96963873
7943.282,7600.72536829,-1427.67460791
8413.951,7583.32511892,-1370.429005
8912.509,7565.91182681,-1316.05759422
9440.609,7548.51913623,-1264.40547069
10000,7531.14910427,-1215.23853614
10592.537,7513.78037374,-1168.55864902
11220.185,7496.46050587,-1123.99357445
11885.022,7479.1339894,-1081.48732616
12589.254,7461.90257097,-1040.8262435
13335.214,7444.797179,-1001.9380445
14125.375,7427.7888048,-964.635102576
14962.357,7410.9423464,-928.836747471
15848.932,7394.26464116,-894.442373341
16788.04,7377.83010589,-861.301886943
17782.794,7361.65801228,-829.414765787
18836.491,7345.75713602,-798.652781795
19952.623,7330.18740013,-768.996544287
21134.89,7314.98001583,-740.375022477
22387.211,7300.19241481,-712.715560972
23713.737,7285.77552241,-686.032831487
25118.864,7271.7932609,-660.207588063
26607.251,7258.25975599,-635.244126477
28183.829,7245.21589824,-611.091757294
29853.826,7232.64847641,-587.764742375
31622.777,7220.52014716,-565.204381183
33496.544,7208.90507551,-543.408931607
35481.339,7197.79744998,-522.370603532
37583.74,7187.16654158,-502.088333071
39810.717,7176.98575008,-482.550671387
42169.65,7167.30262438,-463.689731491
44668.359,7158.04291458,-445.593451523
47315.126,7149.25767358,-428.143062624
50118.723,7140.90413115,-411.420593705
53088.444,7132.92453479,-395.358990552
56234.133,7125.35058818,-379.937504261
59566.214,7118.20138916,-365.175485499
63095.734,7111.41618415,-351.054558016
66834.392,7104.98664311,-337.566805245
70794.578,7098.91422644,-324.704327328
74989.421,7093.12186289,-312.443070138
79432.823,7087.69270991,-300.773594235
84139.514,7082.50619157,-289.705830108
89125.094,7077.63640063,-279.125212835
94406.088,7073.02695051,-269.262585999
100000,7068.64337649,-259.888221991
105925.373,7064.48848888,-251.039436745
112201.845,7060.5699753,-242.712702752
118850.223,7056.85001229,-234.913747818
125892.541,7053.33193292,-227.615431131
133352.143,7050.01749532,-220.802758471
141253.754,7046.87553572,-214.499497592
149623.566,7043.88738877,-208.688958441
158489.319,7041.04315062,-203.330799531
167880.402,7038.3514659,-198.454165739
177827.941,7035.80279714,-194.040471169
188364.909,7033.38646105,-190.08467493
199526.231,7031.09141484,-186.579173307
211348.904,7028.85881086,-183.523708093
223872.114,7026.73921337,-180.885128619
237137.371,7024.74675697,-178.708118877
251188.643,7022.83412025,-177.015628616
266072.506,7020.9939991,-175.792965817
281838.293,7019.22520878,-174.97070296
298538.262,7017.53235661,-174.648035106
316227.766,7015.91094636,-174.794268563
334965.439,7014.3272018,-175.380004198
354813.389,7012.8570349,-176.455944297
375837.404,7011.43303082,-178.045103724
398107.171,7010.02019438,-180.184683774
421696.503,7008.58818501,-182.75388094
446683.592,7007.21639491,-185.849228025
473151.259,7005.93871751,-189.482959771
501187.234,7004.71471308,-193.737338825
530884.444,7003.53342666,-198.770045495
562341.325,7002.42364971,-204.27286246
595662.144,7001.2190723,-210.274134135
630957.344,6999.95380731,-216.954090772
668343.918,6998.69409355,-224.198880185
707945.784,6997.31749442,-232.057924681
749894.209,6995.81534538,-240.506715459
794328.235,6994.28760493,-249.72391357
841395.142,6992.65206011,-259.512915017
891250.938,6990.94571907,-270.152234537
944060.876,6988.76120181,-281.616156608
1000000,6986.64130731,-294.13022615
1059253.725,6984.91170876,-307.915688145
1122018.454,6982.54306268,-322.157845568
1188502.227,6979.90148598,-337.136168759
1258925.412,6978.02610447,-353.730745789
1333521.432,6975.44436437,-371.290504454
1412537.545,6972.33420136,-389.85245244
1496235.656,6967.41893493,-409.037874892
1584893.192,6965.22838234,-431.245537751
1678804.018,6962.0734483,-453.331973782
1778279.41,6956.53299209,-475.919161971
1883649.089,6951.4299385,-502.871102404
1995262.315,6946.68599916,-527.818006361
2113489.04,6940.59768428,-555.912120918
2238721.139,6936.49099848,-587.717541111
2371373.706,6930.02891248,-619.416061081
2511886.432,6923.18034576,-653.251923463
2660725.06,6914.55893295,-689.010672998
2818382.931,6902.64554175,-726.638133075
2985382.619,6894.23531256,-765.503424251
3162277.66,6881.97554377,-807.5094667
3349654.392,6871.5084252,-851.948598103
3548133.892,6855.90179311,-897.946114126
3758374.043,6839.84590771,-946.933893942
3981071.706,6823.41821623,-997.329086004
4216965.034,6805.35663857,-1050.69015755
4466835.922,6784.52533011,-1107.85765774
4731512.59,6760.94743756,-1167.41983339
5011872.336,6735.19489315,-1229.39395205
5308844.442,6707.71759897,-1294.26801302
5623413.252,6677.33411609,-1360.5057061
5956621.435,6641.6068263,-1430.39076288
6309573.445,6604.9352458,-1504.66904782
6683439.176,6564.47811094,-1581.96337201
7079457.844,6518.20560448,-1660.70411175
7498942.093,6466.04869982,-1742.29477949
7943282.347,6410.91982863,-1826.43010767
8413951.416,6350.44581328,-1912.49540005
8912509.381,6283.20947735,-1999.65675454
9440608.763,6212.48090849,-2090.69083843
10000000,6134.04692473,-2182.24002111
10592537.252,6046.31662858,-2275.67654964
11220184.543,5954.17936711,-2367.51387198
11885022.274,5853.82025484,-2459.97192617
12589254.118,5746.22577223,-2552.69539824
13335214.322,5629.05014128,-2643.85625129
14125375.446,5504.04732621,-2731.9007431
14962356.561,5372.38674242,-2818.15122067
15848931.925,5322.64275556,-2833.87931241
16788040.181,5181.38272538,-2912.08692451
17782794.1,5034.03228512,-2984.64988175
18836490.895,4878.30531325,-3057.84489785
19952623.15,4710.38585648,-3123.22194707
21134890.398,4538.20032856,-3171.24605032
22387211.386,4366.61839469,-3216.5776535
23713737.057,4188.40129919,-3256.55940216
25118864.315,3998.04937802,-3286.43794452
26607250.598,3809.27591716,-3297.38401517
28183829.313,3628.60634215,-3303.43686571
29853826.189,3430.64696126,-3299.93597838
31622776.602,3255.12677704,-3282.35239167
33496543.916,3061.52387078,-3275.3533716
35481338.923,2866.63426742,-3217.98122348
37583740.429,2701.83397841,-3167.27523627
39810717.055,2536.6970945,-3115.05064753
42169650.343,2375.95414889,-3056.31933313
44668359.215,2219.57564928,-2993.70501307
47315125.896,2068.28806162,-2922.30556197
50118723.363,1925.44850191,-2846.73615696
53088444.423,1788.55245568,-2768.19086113
56234132.519,1658.93304913,-2685.3999511
59566214.353,1535.55714017,-2600.60934074
63095734.448,1419.38977814,-2514.12692097
66834391.757,1308.81099473,-2424.76689033
70794578.438,1205.03570146,-2334.93949462
74989420.933,1106.96990939,-2243.05913215
79432823.472,1015.43436135,-2151.78364386
84139514.165,929.175046238,-2057.96846514
89125093.813,850.237147055,-1967.28758915
94406087.629,773.749792338,-1874.6715701
