Bottle Number:0
11/15/2017 4:06:04 PM
Frequency (Hz),Impedance(Ohms),Phase(Degrees)
1000,8249.45834667,-6684.77166944
1059.254,8196.13421989,-6349.44979223
1122.018,8145.49825897,-6038.07064322
1188.502,8097.4436885,-5744.72455697
1258.925,8051.63573941,-5467.18471986
1333.521,8008.12531936,-5203.94621191
1412.538,7966.64699822,-4954.08012978
1496.236,7927.14985591,-4716.84619843
1584.893,7889.341866,-4491.11323945
1678.804,7853.40480044,-4276.65410499
1778.279,7819.1157368,-4072.8316829
1883.649,7786.45057745,-3878.89814109
1995.262,7755.2541365,-3694.56935094
2113.489,7725.50410287,-3519.22663977
2238.721,7697.06939282,-3352.39796037
2371.374,7669.79453906,-3193.75517411
2511.886,7643.71256757,-3042.94125676
2660.725,7618.7285577,-2899.56382348
2818.383,7594.76090198,-2763.30510771
2985.383,7571.72894365,-2634.06044186
3162.278,7549.62527709,-2511.19137463
3349.654,7528.36122699,-2394.63526421
3548.134,7507.86440143,-2283.86255984
3758.374,7488.09629766,-2178.65903604
3981.072,7468.93921985,-2078.9306065
4216.965,7450.35348053,-1984.33968839
4466.836,7432.28598453,-1894.69852395
4731.513,7414.68320497,-1809.70208184
5011.872,7397.51049775,-1729.12113924
5308.844,7380.72888172,-1652.73996533
5623.413,7364.22611908,-1580.27401737
5956.621,7348.01774912,-1511.61830696
6309.573,7332.07659388,-1446.54271234
6683.439,7316.37602269,-1384.90324849
7079.458,7300.83445026,-1326.58387917
7498.942,7285.48493345,-1271.22698976
7943.282,7270.28056667,-1218.70633414
8413.951,7255.14013134,-1168.73182408
8912.509,7240.12865775,-1121.30426311
9440.609,7225.21671583,-1076.20852064
10000,7210.4489052,-1033.26747634
10592.537,7195.76184917,-992.437650495
11220.185,7181.199235,-953.548529783
11885.022,7166.72351614,-916.404896518
12589.254,7152.42223063,-880.891955527
13335.214,7138.28169373,-846.934592367
14125.375,7124.32955476,-814.422438917
14962.357,7110.53797861,-783.253917011
15848.932,7097.01348839,-753.320455733
16788.04,7083.68300866,-724.570381552
17782.794,7070.63578127,-696.910655587
18836.491,7057.88551721,-670.327004806
19952.623,7045.4070012,-644.7241869
21134.89,7033.27695459,-620.139469224
22387.211,7021.49403109,-596.45018307
23713.737,7010.06810834,-573.656632229
25118.864,6999.03539944,-551.668529542
26607.251,6988.32446759,-530.452851525
28183.829,6978.00800274,-510.028995265
29853.826,6968.0855191,-490.414088425
31622.777,6958.57889286,-471.462178796
33496.544,6949.41360192,-453.252261576
35481.339,6940.67052754,-435.712315076
37583.74,6932.29736588,-418.871174786
39810.717,6924.29249878,-402.712565463
42169.65,6916.62972968,-387.199420169
44668.359,6909.33195781,-372.309801642
47315.126,6902.35121726,-358.093372329
50118.723,6895.7309902,-344.452961208
53088.444,6889.37147358,-331.454238463
56234.133,6883.30982245,-319.011823198
59566.214,6877.52743085,-307.170733855
63095.734,6872.07674864,-295.902204547
66834.392,6866.86468374,-285.121195161
70794.578,6861.88312855,-274.940531121
74989.421,6857.14821021,-265.267010675
79432.823,6852.6236488,-256.155219738
84139.514,6848.30989644,-247.507681181
89125.094,6844.18809943,-239.385947783
94406.088,6840.24184898,-231.710561442
100000,6836.46087246,-224.532437146
105925.373,6832.84000542,-217.850077374
112201.845,6829.38400138,-211.589378257
118850.223,6826.04478739,-205.779311319
125892.541,6822.86315238,-200.37932244
133352.143,6819.78077618,-195.41277326
141253.754,6816.80586667,-190.859322069
149623.566,6813.9572188,-186.724536822
158489.319,6811.18266226,-182.98304683
167880.402,6808.52789627,-179.632523952
177827.941,6805.94606651,-176.67943559
188364.909,6803.38920145,-174.121414077
199526.231,6800.93103807,-171.94605387
211348.904,6798.52632233,-170.106513774
223872.114,6796.20086318,-168.637050403
237137.371,6793.89494291,-167.565282346
251188.643,6791.64990211,-166.904093977
266072.506,6789.45471858,-166.597011005
281838.293,6787.26886148,-166.69707079
298538.262,6785.13962845,-167.149650057
316227.766,6783.02796384,-168.032829708
334965.439,6780.94442568,-169.28329273
354813.389,6778.90971521,-170.948554456
375837.404,6776.89958498,-173.00807996
398107.171,6774.82553126,-175.570231082
421696.503,6772.78080235,-178.509813384
446683.592,6770.78764658,-181.846498784
473151.259,6768.77033281,-185.654497375
501187.234,6766.81790587,-189.995732729
530884.444,6764.86512924,-194.980202719
562341.325,6762.97148304,-200.381343697
595662.144,6760.95518827,-206.206302956
630957.344,6758.92786334,-212.579230966
668343.918,6756.84711489,-219.454447443
707945.784,6754.60306483,-226.812671705
749894.209,6752.282251,-234.716119018
794328.235,6749.89688925,-243.221413028
841395.142,6747.46567386,-252.217765078
891250.938,6744.86138262,-261.943986909
944060.876,6741.80098471,-272.412496349
1000000,6738.84754516,-283.716293785
1059253.725,6736.23872036,-296.12095157
1122018.454,6733.0266092,-308.931842116
1188502.227,6729.59313967,-322.378127036
1258925.412,6726.87385996,-337.213602327
1333521.432,6723.48484166,-352.882772526
1412537.545,6719.58075443,-369.386586238
1496235.656,6713.77614441,-386.131737403
1584893.192,6709.6287361,-405.622489458
1678804.018,6705.98880559,-426.430641872
1778279.41,6701.0557353,-446.430611586
1883649.089,6694.4556309,-467.543609123
1995262.315,6690.0116302,-491.271604823
2113489.04,6685.96517776,-516.931949431
2238721.139,6678.13738419,-542.516942688
2371373.706,6671.92093943,-570.403453374
2511886.432,6665.17712575,-601.990246378
2660725.06,6656.74158131,-631.703016631
2818382.931,6646.97988151,-664.650099345
2985382.619,6637.83341878,-699.93394129
3162277.66,6627.82212958,-735.565808576
3349654.392,6614.87745652,-775.271774921
3548133.892,6602.6804828,-816.672768338
3758374.043,6588.3721225,-856.850662506
3981071.706,6574.1412473,-902.209321294
4216965.034,6556.15416531,-950.075169571
4466835.922,6538.24953592,-998.449904981
4731512.59,6516.7590093,-1050.84717895
5011872.336,6495.61560187,-1105.67955389
5308844.442,6471.96706177,-1163.50838426
5623413.252,6446.14789127,-1222.33105192
5956621.435,6414.59206806,-1283.60550894
6309573.445,6382.31424161,-1348.05874783
6683439.176,6347.5376251,-1416.94955004
7079457.844,6307.65146024,-1487.30290099
7498942.093,6265.11073238,-1560.38930668
7943282.347,6216.80041065,-1636.20664427
8413951.416,6166.6540657,-1712.97550484
8912509.381,6111.41367146,-1792.30602122
9440608.763,6049.64362819,-1873.70073253
10000000,5984.0361629,-1958.66138195
10592537.252,5909.06753961,-2042.43825186
11220184.543,5832.48063979,-2128.99978969
11885022.274,5744.56387058,-2215.29272341
12589254.118,5653.6321678,-2300.49161353
13335214.322,5554.97581045,-2388.75295206
14125375.446,5447.11768782,-2472.74352651
14962356.561,5335.05489262,-2558.39507622
15848931.925,5295.90066075,-2568.66793947
16788040.181,5174.86721804,-2647.02206765
17782794.1,5044.76080127,-2723.33806691
18836490.895,4907.66448235,-2794.31819316
19952623.15,4766.9700512,-2862.9539958
21134890.398,4612.38019014,-2929.24103051
22387211.386,4454.18930767,-2981.76058975
23713737.057,4292.68523125,-3028.4798034
25118864.315,4121.08502622,-3066.82794438
26607250.598,3947.43924788,-3093.19930246
28183829.313,3782.05643691,-3112.33689019
29853826.189,3600.54536552,-3131.86973312
31622776.602,3433.13873314,-3131.6376864
33496543.916,3250.40888144,-3151.14001499
35481338.923,3041.96173314,-3110.42842155
37583740.429,2880.91549348,-3067.08404593
39810717.055,2720.66768656,-3028.11230614
42169650.343,2560.63329848,-2984.30446814
44668359.215,2405.91420438,-2936.36880905
47315125.896,2251.45430965,-2879.35094971
50118723.363,2105.37367218,-2816.71313609
53088444.423,1965.01707313,-2750.71708337
56234132.519,1829.39515356,-2679.15406974
59566214.353,1700.74670367,-2603.50797411
63095734.448,1577.51814747,-2526.30892341
66834391.757,1460.32346187,-2444.72748591
70794578.438,1349.50787738,-2361.02589807
74989420.933,1244.72800835,-2275.46513676
79432823.472,1145.29242592,-2190.06240086
84139514.165,1049.77579332,-2100.91698155
89125093.813,964.005151946,-2014.12787887
94406087.629,878.021138912,-1924.26271157
