Bottle Number:0
11/15/2017 12:21:15 PM
Frequency (Hz),Impedance(Ohms),Phase(Degrees)
1000,8026.19705765,-6297.77784615
1059.254,7979.47872619,-5976.57182338
1122.018,7935.41741078,-5680.17076774
1188.502,7893.7277073,-5401.84066275
1258.925,7854.03679396,-5139.08518828
1333.521,7816.34060536,-4890.23322287
1412.538,7780.33288451,-4654.32605706
1496.236,7746.0615404,-4430.54292947
1584.893,7713.22537453,-4217.83180536
1678.804,7681.96271135,-4015.88588809
1778.279,7652.04506081,-3824.05741301
1883.649,7623.50533113,-3641.69859772
1995.262,7596.17495081,-3468.47563876
2113.489,7570.06572718,-3303.76040402
2238.721,7545.01944653,-3147.13041097
2371.374,7520.94364484,-2998.22254593
2511.886,7497.82448715,-2856.74852635
2660.725,7475.61666311,-2722.29809338
2818.383,7454.20942153,-2594.67573456
2985.383,7433.63084831,-2473.62625153
3162.278,7413.7405912,-2358.61978109
3349.654,7394.5605865,-2249.60996757
3548.134,7375.97901027,-2146.05875447
3758.374,7358.00229962,-2047.69657387
3981.072,7340.44290171,-1954.5271905
4216.965,7323.3988457,-1866.24661633
4466.836,7306.74845681,-1782.59375566
4731.513,7290.42294804,-1703.31262557
5011.872,7274.40552252,-1628.24774053
5308.844,7258.69512621,-1557.01544026
5623.413,7243.18424123,-1489.51813159
5956.621,7227.86915575,-1425.54638787
6309.573,7212.71459611,-1364.97404748
6683.439,7197.73479522,-1307.6055154
7079.458,7182.84833387,-1253.3276464
7498.942,7168.06863408,-1201.79695295
7943.282,7153.3810242,-1152.8775051
8413.951,7138.7380314,-1106.37594109
8912.509,7124.15572213,-1062.16843334
9440.609,7109.65083082,-1020.11561074
10000,7095.20378057,-980.099343517
10592.537,7080.84107883,-942.017632867
11220.185,7066.57835243,-905.639018433
11885.022,7052.38662608,-870.903639693
12589.254,7038.34002606,-837.692782345
13335.214,7024.4430726,-805.86081871
14125.375,7010.6929535,-775.32110667
14962.357,6997.12136705,-745.994756587
15848.932,6983.78963942,-717.843965871
16788.04,6970.66888931,-690.714728258
17782.794,6957.81664305,-664.627278625
18836.491,6945.26178774,-639.484539572
19952.623,6933.00272581,-615.219055347
21134.89,6921.07675893,-591.910754195
22387.211,6909.47954676,-569.412042167
23713.737,6898.22447864,-547.689497327
25118.864,6887.38690648,-526.737640769
26607.251,6876.88679128,-506.522069312
28183.829,6866.81090919,-487.036128156
29853.826,6857.080262,-468.218708654
31622.777,6847.77232698,-450.055388622
33496.544,6838.83073563,-432.577051197
35481.339,6830.26749992,-415.735370716
37583.74,6822.1109398,-399.523737358
39810.717,6814.31162716,-383.932867467
42169.65,6806.86963498,-368.974088603
44668.359,6799.78124775,-354.620039899
47315.126,6793.01110707,-340.821811041
50118.723,6786.59685516,-327.614197412
53088.444,6780.47301637,-314.97165849
56234.133,6774.65019408,-302.866018919
59566.214,6769.11625895,-291.324751285
63095.734,6763.86091405,-280.312907962
66834.392,6758.90545439,-269.792493859
70794.578,6754.1841826,-259.784965166
74989.421,6749.71287963,-250.302117694
79432.823,6745.43132498,-241.289621415
84139.514,6741.40000601,-232.785904745
89125.094,6737.57594397,-224.709545047
94406.088,6733.93742246,-217.169471408
100000,6730.4323167,-210.001146246
105925.373,6727.0983021,-203.311288558
112201.845,6723.97405559,-197.054973249
118850.223,6720.97842209,-191.18190915
125892.541,6718.12060639,-185.753531478
133352.143,6715.41307315,-180.730653321
141253.754,6712.81247804,-176.065602665
149623.566,6710.32487728,-171.828618911
158489.319,6707.95522825,-167.982946038
167880.402,6705.69371831,-164.503933377
177827.941,6703.53169482,-161.404349001
188364.909,6701.4678353,-158.681666689
199526.231,6699.43565712,-156.320646077
211348.904,6697.48710312,-154.346801196
223872.114,6695.63249173,-152.650173035
237137.371,6693.84282607,-151.386367811
251188.643,6692.08886569,-150.481865743
266072.506,6690.40362632,-149.967544661
281838.293,6688.74946184,-149.858252951
298538.262,6687.1555164,-150.062900781
316227.766,6685.60924642,-150.682742371
334965.439,6684.11390351,-151.660859608
354813.389,6682.6533592,-153.054752383
375837.404,6681.25830362,-154.897013133
398107.171,6679.83534034,-157.177006981
421696.503,6678.39913759,-159.812168012
446683.592,6677.03388868,-162.879520905
473151.259,6675.68851198,-166.418571764
501187.234,6674.39904215,-170.45955359
530884.444,6673.14242303,-175.156138411
562341.325,6671.94583443,-180.247113982
595662.144,6670.66079505,-185.803333843
630957.344,6669.36107161,-191.884909888
668343.918,6667.99351096,-198.450161787
707945.784,6666.54625658,-205.50949945
749894.209,6664.93450287,-213.103634951
794328.235,6663.35379334,-221.328684374
841395.142,6661.70515757,-230.059175555
891250.938,6659.9019631,-239.45502504
944060.876,6657.65464391,-249.667271604
1000000,6655.54285773,-260.653782466
1059253.725,6653.79999209,-272.753765552
1122018.454,6651.44590654,-285.276812818
1188502.227,6648.81585639,-298.442905311
1258925.412,6646.92742248,-312.974911914
1333521.432,6644.46129834,-328.352213462
1412537.545,6641.46686322,-344.553727859
1496235.656,6636.65334424,-362.668621835
1584893.192,6633.67561438,-380.057520185
1678804.018,6631.33636437,-399.343862736
1778279.41,6627.28369835,-419.653887589
1883649.089,6622.13501687,-441.068444885
1995262.315,6617.13475871,-464.603273998
2113489.04,6613.85456893,-489.770776799
2238721.139,6607.14680339,-514.675397656
2371373.706,6602.25331159,-543.440859377
2511886.432,6596.16048835,-573.505393355
2660725.06,6588.55503439,-604.325603538
2818382.931,6579.78706331,-636.512271965
2985382.619,6572.20324457,-670.920174834
3162277.66,6561.3231081,-705.611810199
3349654.392,6551.70015439,-744.837807526
3548133.892,6538.45077387,-783.577990002
3758374.043,6526.53535549,-827.184666222
3981071.706,6512.11570735,-870.758783853
4216965.034,6497.34430313,-918.764430047
4466835.922,6479.4122016,-964.965267146
4731512.59,6461.18844165,-1017.62595869
5011872.336,6438.74960198,-1072.5807293
5308844.442,6418.16967954,-1128.21107784
5623413.252,6390.78099777,-1186.32471197
5956621.435,6362.7016679,-1249.77278445
6309573.445,6333.30333162,-1312.32392077
6683439.176,6299.51800047,-1379.3505329
7079457.844,6260.52090853,-1449.27527821
7498942.093,6220.26606689,-1520.6872035
7943282.347,6174.32206328,-1597.37724782
8413951.416,6124.3351401,-1673.15408856
8912509.381,6071.61877876,-1751.9580142
9440608.763,6013.08718152,-1833.40546342
10000000,5947.2700191,-1917.30061805
10592537.252,5876.96358928,-2001.08294202
11220184.543,5800.43450831,-2088.44870935
11885022.274,5715.98812988,-2173.36051695
12589254.118,5627.33945611,-2260.53051962
13335214.322,5530.3497723,-2347.53677875
14125375.446,5426.05917181,-2432.19752895
14962356.561,5315.17326866,-2517.63333313
15848931.925,5276.4570447,-2527.95376886
16788040.181,5156.95617553,-2608.02402919
17782794.1,5029.0935056,-2684.87469369
18836490.895,4895.83868998,-2754.70413979
19952623.15,4757.39204108,-2827.89160169
21134890.398,4603.94825594,-2893.43127974
22387211.386,4446.43395514,-2947.58175857
23713737.057,4286.06624882,-2995.18918703
25118864.315,4116.12309511,-3035.29058102
26607250.598,3944.88547858,-3062.03767667
28183829.313,3781.05936172,-3082.77190829
29853826.189,3600.47184453,-3102.5376707
31622776.602,3433.91107598,-3103.80020839
33496543.916,3251.30891783,-3126.03364849
35481338.923,3045.53481825,-3084.79481455
37583740.429,2885.78768823,-3044.00592477
39810717.055,2726.02997858,-3006.05942579
42169650.343,2567.33044818,-2963.30294084
44668359.215,2412.81774354,-2917.30213539
47315125.896,2258.9786501,-2861.05081213
50118723.363,2113.16513899,-2800.07762919
53088444.423,1973.80677571,-2734.60528642
56234132.519,1838.60367396,-2664.82327984
59566214.353,1709.91292643,-2590.58867028
63095734.448,1586.69647832,-2514.61018216
66834391.757,1470.15628002,-2433.93731633
70794578.438,1359.50502977,-2351.93357742
74989420.933,1254.08971651,-2267.19310565
79432823.472,1155.04852685,-2183.34188818
84139514.165,1059.19770048,-2095.19337546
89125093.813,972.879830331,-2009.34918175
94406087.629,886.719794075,-1920.2413105
