Bottle Number:0
11/15/2017 1:33:55 PM
Frequency (Hz),Impedance(Ohms),Phase(Degrees)
1000,8113.01970028,-6461.06635151
1059.254,8063.28063059,-6134.69064305
1122.018,8016.10041248,-5832.54716768
1188.502,7971.32805616,-5548.33921586
1258.925,7928.69008646,-5279.75411721
1333.521,7888.146575,-5025.19196216
1412.538,7849.46039167,-4783.71223911
1496.236,7812.58382768,-4554.48176046
1584.893,7777.25149448,-4336.49249322
1678.804,7743.66837449,-4129.51788949
1778.279,7711.52662858,-3932.7830627
1883.649,7680.86341675,-3745.6582497
1995.262,7651.58129872,-3567.89487277
2113.489,7623.59065661,-3398.81140038
2238.721,7596.76053164,-3237.97306938
2371.374,7571.02649882,-3085.06863022
2511.886,7546.31346631,-2939.70882063
2660.725,7522.63078471,-2801.49199744
2818.383,7499.82339267,-2670.26292608
2985.383,7477.92181043,-2545.71580455
3162.278,7456.81253932,-2427.40304081
3349.654,7436.4806677,-2315.13257342
3548.134,7416.84419066,-2208.46871201
3758.374,7397.83784463,-2107.17048038
3981.072,7379.39397895,-2011.20980765
4216.965,7361.47200353,-1920.19237855
4466.836,7344.00965345,-1833.87183633
4731.513,7326.92979298,-1752.11666643
5011.872,7310.28233788,-1674.57738169
5308.844,7293.8877457,-1601.08461289
5623.413,7277.79498056,-1531.34003588
5956.621,7261.99369876,-1465.29171837
6309.573,7246.34822547,-1402.72489677
6683.439,7230.94266112,-1343.41151544
7079.458,7215.68334585,-1287.27273965
7498.942,7200.5613922,-1234.01193291
7943.282,7185.52712632,-1183.47360966
8413.951,7170.62244032,-1135.38024535
8912.509,7155.800919,-1089.74503562
9440.609,7141.0702137,-1046.26461315
10000,7126.41458039,-1004.94197653
10592.537,7111.86608904,-965.603015054
11220.185,7097.44969756,-928.086421005
11885.022,7083.101366,-892.264040594
12589.254,7068.91354117,-858.010151396
13335.214,7054.88830542,-825.249961194
14125.375,7041.00650663,-793.804329927
14962.357,7027.34379636,-763.671409524
15848.932,7013.86438299,-734.709408379
16788.04,7000.62696849,-706.870819882
17782.794,6987.68914832,-680.091358358
18836.491,6974.99339092,-654.319726347
19952.623,6962.61586505,-629.498854101
21134.89,6950.56078891,-605.645729059
22387.211,6938.86395936,-582.633583849
23713.737,6927.51734207,-560.460458342
25118.864,6916.50698376,-539.075728457
26607.251,6905.88699541,-518.45312879
28183.829,6895.64043067,-498.577816246
29853.826,6885.75930105,-479.394775159
31622.777,6876.28833214,-460.912361263
33496.544,6867.21300637,-443.139724883
35481.339,6858.51898468,-426.010931618
37583.74,6850.173214,-409.558764532
39810.717,6842.21772741,-393.728026044
42169.65,6834.61792802,-378.524193164
44668.359,6827.37458666,-363.961731066
47315.126,6820.45162549,-349.99624039
50118.723,6813.84084818,-336.615550604
53088.444,6807.55102122,-323.802134304
56234.133,6801.54942615,-311.545292379
59566.214,6795.82287274,-299.889031909
63095.734,6790.39176229,-288.726189988
66834.392,6785.22303004,-278.100720822
70794.578,6780.29895366,-268.03269472
74989.421,6775.62948289,-258.45182002
79432.823,6771.12915899,-249.388936663
84139.514,6766.91284732,-240.735588953
89125.094,6762.88608919,-232.645863442
94406.088,6759.01365807,-225.002131608
100000,6755.30482949,-217.85095348
105925.373,6751.78972516,-211.108451298
112201.845,6748.38898921,-204.807486237
118850.223,6745.18618763,-198.946916293
125892.541,6742.13492221,-193.472031867
133352.143,6739.17368221,-188.429484916
141253.754,6736.34188014,-183.790589834
149623.566,6733.6353247,-179.517480365
158489.319,6731.01076641,-175.663024199
167880.402,6728.48356732,-172.191909763
177827.941,6726.0738242,-169.099898818
188364.909,6723.72399041,-166.367532546
199526.231,6721.46593243,-164.050492467
211348.904,6719.25647261,-162.033570431
223872.114,6717.11638694,-160.369673948
237137.371,6715.06638328,-159.125291226
251188.643,6713.0484542,-158.263857299
266072.506,6711.08561847,-157.766857356
281838.293,6709.18262983,-157.618614443
298538.262,6707.30979328,-157.87890162
316227.766,6705.46917993,-158.498440131
334965.439,6703.67342601,-159.501886554
354813.389,6701.91693181,-160.93020763
375837.404,6700.23522149,-162.774447069
398107.171,6698.5126118,-165.098117389
421696.503,6696.7938502,-167.765500949
446683.592,6695.11373448,-170.870634926
473151.259,6693.47921068,-174.385702948
501187.234,6691.89521182,-178.466869889
530884.444,6690.34764639,-183.174206018
562341.325,6688.80313433,-188.270197689
595662.144,6687.20179476,-193.849293092
630957.344,6685.59141755,-199.937922155
668343.918,6683.9333041,-206.487057091
707945.784,6682.13133187,-213.577193265
749894.209,6680.2724304,-221.1897545
794328.235,6678.35458251,-229.395400147
841395.142,6676.35863215,-238.088692148
891250.938,6674.24697107,-247.492419305
944060.876,6671.68261819,-257.668245326
1000000,6669.19125472,-268.692459569
1059253.725,6667.14407396,-280.808800737
1122018.454,6664.49037155,-293.282460274
1188502.227,6661.52718283,-306.403894104
1258925.412,6659.34863392,-320.890803911
1333521.432,6656.50444183,-336.266102898
1412537.545,6653.20608237,-352.399352732
1496235.656,6649.47664297,-368.574408447
1584893.192,6645.85965578,-388.215621539
1678804.018,6641.86743917,-408.72825739
1778279.41,6636.24026614,-427.830480221
1883649.089,6631.92134134,-449.359347561
1995262.315,6626.84792199,-472.58105932
2113489.04,6623.61162496,-496.699647079
2238721.139,6617.17970459,-524.004147234
2371373.706,6611.47644124,-550.482612664
2511886.432,6603.68460964,-581.737024566
2660725.06,6597.72319217,-610.521933217
2818382.931,6589.17689828,-643.529486731
2985382.619,6578.49462405,-676.438325456
3162277.66,6570.68638829,-713.685704598
3349654.392,6557.61128393,-752.44132253
3548133.892,6546.49908375,-792.236532171
3758374.043,6532.36679237,-833.214948708
3981071.706,6517.95677817,-877.570629563
4216965.034,6502.62264745,-923.931960999
4466835.922,6484.95585108,-972.999694273
4731512.59,6465.01599739,-1023.82415002
5011872.336,6444.21681224,-1076.96700785
5308844.442,6423.00108353,-1133.96558563
5623413.252,6396.82054869,-1192.14346471
5956621.435,6367.5854726,-1254.14330097
6309573.445,6336.52402043,-1318.02308859
6683439.176,6302.74884415,-1384.95133502
7079457.844,6264.84950199,-1455.49912205
7498942.093,6225.05627086,-1527.05567673
7943282.347,6179.05539664,-1601.35659078
8413951.416,6129.8983498,-1679.5382271
8912509.381,6073.46053395,-1757.72673068
9440608.763,6015.07514252,-1838.86785341
10000000,5951.40213274,-1920.7126381
10592537.252,5879.97345504,-2006.09383306
11220184.543,5801.19251171,-2092.01276413
11885022.274,5718.12416164,-2176.91879938
12589254.118,5627.45573768,-2265.61566002
13335214.322,5532.85675621,-2351.33621573
14125375.446,5427.88418052,-2437.0025671
14962356.561,5316.07472015,-2521.24241577
15848931.925,5277.89984918,-2531.40350349
16788040.181,5158.96477454,-2610.93496298
17782794.1,5030.99029909,-2687.53194362
18836490.895,4896.73541887,-2758.80199456
19952623.15,4757.81195585,-2831.02738487
21134890.398,4604.97234135,-2895.63623609
22387211.386,4447.43150037,-2949.56669686
23713737.057,4287.09330033,-2997.28434367
25118864.315,4117.04468765,-3037.96219138
26607250.598,3946.05444634,-3064.70063282
28183829.313,3780.72474025,-3085.42819652
29853826.189,3601.89623656,-3104.65115385
31622776.602,3435.69714413,-3107.11006547
33496543.916,3252.27994228,-3127.24742064
35481338.923,3047.08549827,-3087.93539072
37583740.429,2886.6044501,-3046.51535457
39810717.055,2727.00512762,-3009.108429
42169650.343,2568.31024655,-2966.58422981
44668359.215,2413.25935838,-2920.11683283
47315125.896,2258.42133972,-2863.24598317
50118723.363,2113.21735638,-2801.9687834
53088444.423,1973.00401005,-2737.18256909
56234132.519,1838.37315477,-2666.97005017
59566214.353,1709.34561778,-2592.45753362
63095734.448,1586.08613724,-2516.3756067
66834391.757,1469.15094459,-2435.97540444
70794578.438,1358.39948579,-2353.93841162
74989420.933,1253.22680262,-2268.74433407
79432823.472,1154.0935013,-2184.17897927
84139514.165,1058.26508849,-2096.49708501
89125093.813,971.876437706,-2010.59343919
94406087.629,885.323712432,-1921.5600439
