Bottle Number:0
11/27/2017 11:34:27 AM
Frequency (Hz),Impedance(Ohms),Phase(Degrees)
1000,10810.1997335,-11666.5077163
1059.254,10712.4726827,-11057.7768951
1122.018,10619.7510423,-10502.038159
1188.502,10532.1544984,-9982.6243619
1258.925,10449.353583,-9493.28552484
1333.521,10371.1799572,-9030.1647034
1412.538,10297.1537096,-8591.58723399
1496.236,10227.126565,-8175.74513548
1584.893,10160.7939978,-7780.54865251
1678.804,10098.169888,-7405.26220249
1778.279,10038.8320122,-7047.98332465
1883.649,9982.73985631,-6708.65214855
1995.262,9929.75580668,-6385.60157853
2113.489,9879.70282383,-6077.85542449
2238.721,9832.31774687,-5784.73722741
2371.374,9787.50092985,-5505.70847496
2511.886,9745.07107915,-5239.95776249
2660.725,9704.86990517,-4986.70231443
2818.383,9666.94094891,-4746.00500341
2985.383,9630.96120807,-4516.93170018
3162.278,9596.94735071,-4298.93889067
3349.654,9564.69189462,-4091.57441231
3548.134,9534.21600892,-3894.00078481
3758.374,9505.28485269,-3706.06382312
3981.072,9477.7871592,-3527.3700744
4216.965,9451.66422668,-3357.62549378
4466.836,9426.82110647,-3196.47403194
4731.513,9403.13690379,-3043.38522425
5011.872,9380.45467341,-2897.9021516
5308.844,9358.77094627,-2759.76396406
5623.413,9337.86685134,-2628.68040171
5956.621,9317.95044723,-2504.37187365
6309.573,9298.67140201,-2386.59028473
6683.439,9280.05972054,-2275.05301443
7079.458,9262.00346737,-2169.40055513
7498.942,9244.50456704,-2069.37044498
7943.282,9227.42968698,-1974.6080268
8413.951,9210.73870756,-1884.85470771
8912.509,9194.37164474,-1799.80223075
9440.609,9178.29058639,-1719.32387069
10000,9162.38850465,-1643.07299595
10592.537,9146.69154259,-1571.01188366
11220.185,9131.16924337,-1502.74360577
11885.022,9115.81931333,-1438.08946817
12589.254,9100.56571427,-1376.78475773
13335.214,9085.37087264,-1318.59469516
14125.375,9070.29477838,-1263.45485725
14962.357,9055.22225342,-1211.03603858
15848.932,9040.31153742,-1161.17684595
16788.04,9025.47803723,-1113.8054895
17782.794,9010.68310702,-1068.68703903
18836.491,8996.01892438,-1025.67593934
19952.623,8981.50839375,-984.587761564
21134.89,8967.17672287,-945.462942373
22387.211,8952.94958484,-908.115432987
23713.737,8939.01848989,-872.337653212
25118.864,8925.25765542,-838.103330737
26607.251,8911.7735025,-805.247535414
28183.829,8898.57368789,-773.832473713
29853.826,8885.72024258,-743.610491468
31622.777,8873.16797893,-714.612618724
33496.544,8860.98863335,-686.845741877
35481.339,8849.18831491,-660.112643228
37583.74,8837.75959748,-634.530477781
39810.717,8826.71304662,-609.965316339
42169.65,8816.05402572,-586.36825815
44668.359,8805.80803597,-563.759109548
47315.126,8795.94831914,-542.119800219
50118.723,8786.48145522,-521.368997943
53088.444,8777.42285452,-501.60024344
56234.133,8768.73231209,-482.625618621
59566.214,8760.39658688,-464.54005914
63095.734,8752.47981705,-447.242655692
66834.392,8744.89557716,-430.785136887
70794.578,8737.64094485,-415.154710155
74989.421,8730.7501852,-400.319496742
79432.823,8724.14359174,-386.277019293
84139.514,8717.89366754,-372.898921915
89125.094,8711.89966782,-360.24807495
94406.088,8706.30220232,-348.459754168
100000,8700.87263038,-337.313857253
105925.373,8695.61117613,-326.90092279
112201.845,8690.72298246,-317.148157137
118850.223,8686.012122,-308.047562923
125892.541,8681.52643392,-299.631227281
133352.143,8677.29389408,-291.883082536
141253.754,8673.21821732,-284.737582533
149623.566,8669.30435772,-278.231974072
158489.319,8665.56788579,-272.377182168
167880.402,8662.06512416,-267.159218847
177827.941,8658.62365042,-262.505365316
188364.909,8655.34238451,-258.527456594
199526.231,8652.17984868,-255.129788215
211348.904,8649.11536702,-252.296184599
223872.114,8646.15805251,-250.071855818
237137.371,8643.44807555,-248.472879859
251188.643,8640.67920006,-247.578590934
266072.506,8638.04536507,-247.232249617
281838.293,8635.50693309,-247.593333388
298538.262,8633.00658619,-248.529611441
316227.766,8630.5551402,-250.143341123
334965.439,8628.17048521,-252.36152293
354813.389,8625.89440007,-255.312444976
375837.404,8623.65968732,-258.986980901
398107.171,8621.35682128,-263.403054342
421696.503,8619.10391738,-268.496160008
446683.592,8616.87436501,-274.317995796
473151.259,8614.70304551,-280.863062276
501187.234,8612.58314054,-288.369146232
530884.444,8610.60409642,-296.839112946
562341.325,8608.5473449,-306.055978697
595662.144,8606.26512498,-316.158500836
630957.344,8604.0837657,-327.091383843
668343.918,8601.70552859,-338.971221348
707945.784,8599.15981114,-351.719470303
749894.209,8596.34597605,-365.490178028
794328.235,8593.51554899,-380.200689092
841395.142,8590.59119333,-395.960746137
891250.938,8587.31787985,-412.892472963
944060.876,8583.35251459,-431.058515807
1000000,8579.43237873,-450.71479968
1059253.725,8576.04025764,-472.095514554
1122018.454,8571.59347276,-494.37285081
1188502.227,8566.70432893,-517.828764179
1258925.412,8562.64840375,-543.447419928
1333521.432,8557.65875635,-570.616817008
1412537.545,8551.71131656,-599.236034562
1496235.656,8545.83951195,-629.56395078
1584893.192,8536.76006547,-662.209664703
1678804.018,8531.82236575,-696.105513833
1778279.41,8519.4269019,-731.507154647
1883649.089,8515.41592819,-771.08877583
1995262.315,8503.42995405,-811.588250997
2113489.04,8493.43625355,-854.062675951
2238721.139,8485.54485921,-900.019002769
2371373.706,8471.89148925,-945.064540572
2511886.432,8455.67512531,-1001.839785
2660725.06,8440.91002831,-1056.14541323
2818382.931,8423.15185422,-1112.50381624
2985382.619,8401.62478937,-1171.06579984
3162277.66,8379.98154292,-1235.00729059
3349654.392,8357.69375543,-1298.66008897
3548133.892,8332.26617226,-1369.57093482
3758374.043,8302.21790937,-1440.5635087
3981071.706,8269.22619954,-1513.6108781
4216965.034,8235.10490957,-1593.50151293
4466835.922,8198.07403136,-1675.78851997
4731512.59,8154.17419891,-1762.14975159
5011872.336,8107.24791235,-1849.80245397
5308844.442,8057.8151828,-1942.54952301
5623413.252,8001.20487035,-2038.45708537
5956621.435,7937.92888788,-2137.37436839
6309573.445,7873.18786988,-2237.62900368
6683439.176,7796.79143616,-2345.67626373
7079457.844,7716.1068495,-2451.47066292
7498942.093,7627.20869315,-2561.23976745
7943282.347,7530.87079774,-2670.2977391
8413951.416,7425.19667396,-2785.5228251
8912509.381,7310.96668803,-2898.65687534
9440608.763,7192.13519577,-3010.84288862
10000000,7060.392617,-3123.84397672
10592537.252,6916.26724773,-3233.91234593
11220184.543,6765.86087901,-3342.95372078
11885022.274,6604.05481734,-3447.28751393
12589254.118,6433.76016416,-3544.2853736
13335214.322,6255.31545092,-3641.71329268
14125375.446,6065.73372061,-3725.22583435
14962356.561,5868.47309484,-3808.69099307
15848931.925,5795.05766326,-3816.25896121
16788040.181,5590.49243112,-3884.43923112
17782794.1,5376.60009799,-3945.21308471
18836490.895,5159.19113113,-3989.14940761
19952623.15,4938.5966362,-4035.04363751
21134890.398,4699.31488685,-4062.00037979
22387211.386,4465.24650397,-4065.17527209
23713737.057,4238.60176864,-4067.23105673
25118864.315,3991.07227138,-4054.07775139
26607250.598,3762.30107448,-4013.57365023
28183829.313,3550.56119852,-3968.09723243
29853826.189,3311.37602937,-3933.09564485
31622776.602,3110.85112568,-3859.21172186
33496543.916,2868.38695811,-3818.22424841
35481338.923,2648.84788882,-3676.75609185
37583740.429,2485.95819187,-3572.39818648
39810717.055,2318.23618924,-3473.49887742
42169650.343,2154.31004789,-3371.21811738
44668359.215,1998.26596481,-3269.38566063
47315125.896,1844.29344907,-3155.91069873
50118723.363,1704.92995246,-3042.59552852
53088444.423,1573.35125177,-2928.92420873
56234132.519,1448.63433085,-2813.62712322
59566214.353,1331.95496968,-2696.92476371
63095734.448,1222.84007956,-2582.0687633
66834391.757,1119.73133094,-2465.74918056
70794578.438,1024.78468605,-2349.58516672
74989420.933,935.799572199,-2234.39555728
79432823.472,852.928741189,-2122.4159407
84139514.165,774.260232373,-2007.12879919
89125093.813,703.665494548,-1899.0354805
94406087.629,632.888355457,-1787.08817707
