Bottle Number:0
11/27/2017 2:58:14 PM
Frequency (Hz),Impedance(Ohms),Phase(Degrees)
1000,10517.0680397,-12251.3127375
1059.254,10421.2417582,-11607.3650469
1122.018,10329.295886,-11019.0692769
1188.502,10242.1091478,-10469.1273235
1258.925,10159.3875964,-9951.21349759
1333.521,10081.2621063,-9461.04959537
1412.538,10007.1454552,-8997.32092583
1496.236,9937.08221872,-8557.89067769
1584.893,9870.6616117,-8140.51454245
1678.804,9807.97010984,-7744.43041866
1778.279,9748.62585749,-7367.38041104
1883.649,9692.56290088,-7009.50913048
1995.262,9639.58485782,-6669.06293289
2113.489,9589.54631798,-6344.88724159
2238.721,9542.29837052,-6036.3172663
2371.374,9497.56291536,-5742.72258557
2511.886,9455.28034814,-5463.16976895
2660.725,9415.3548403,-5196.90403861
2818.383,9377.65755076,-4943.95785323
2985.383,9341.90335782,-4703.17414644
3162.278,9308.21102468,-4474.23741034
3349.654,9276.35351196,-4256.48197083
3548.134,9246.22405505,-4049.05468232
3758.374,9217.70162645,-3851.8575494
3981.072,9190.69247282,-3664.31176039
4216.965,9165.04379714,-3486.26796809
4466.836,9140.67757736,-3317.14786886
4731.513,9117.44766022,-3156.55861042
5011.872,9095.41498235,-3004.0602292
5308.844,9074.27710067,-2859.11182721
5623.413,9054.09835825,-2721.61648048
5956.621,9034.71866872,-2591.30788359
6309.573,9016.11205789,-2467.88230354
6683.439,8998.15650502,-2350.85667708
7079.458,8980.83045462,-2240.15612149
7498.942,8964.07270264,-2135.33478126
7943.282,8947.72152222,-2036.03473813
8413.951,8931.7823417,-1941.93737922
8912.509,8916.16855512,-1852.91483154
9440.609,8900.83657679,-1768.69163144
10000,8885.76071235,-1688.8943422
10592.537,8870.89611815,-1613.49311308
11220.185,8856.18147136,-1542.13645182
11885.022,8841.59422329,-1474.58914553
12589.254,8827.15284308,-1410.58095571
13335.214,8812.73611142,-1349.934823
14125.375,8798.39369628,-1292.48515303
14962.357,8784.09959957,-1237.99941884
15848.932,8769.88802068,-1186.20925692
16788.04,8755.75178392,-1137.03598344
17782.794,8741.61311857,-1090.25918146
18836.491,8727.59002124,-1045.72577761
19952.623,8713.63889174,-1003.28608997
21134.89,8699.81880697,-962.905229717
22387.211,8686.1321539,-924.370389709
23713.737,8672.59391938,-887.528083295
25118.864,8659.26678114,-852.319831132
26607.251,8646.10836464,-818.610324827
28183.829,8633.24988278,-786.283126654
29853.826,8620.65800285,-755.318631142
31622.777,8608.34004681,-725.63303088
33496.544,8596.32019045,-697.168025406
35481.339,8584.66594015,-669.838087382
37583.74,8573.34186062,-643.607080204
39810.717,8562.43355609,-618.473277401
42169.65,8551.83799358,-594.330738314
44668.359,8541.69609336,-571.203675063
47315.126,8531.88358342,-549.035810419
50118.723,8522.48285146,-527.853321841
53088.444,8513.38043858,-507.524384573
56234.133,8504.70701544,-488.047655847
59566.214,8496.38547313,-469.543817783
63095.734,8488.45193191,-451.786721493
66834.392,8480.8915629,-434.894831944
70794.578,8473.61058209,-418.846880243
74989.421,8466.75361928,-403.545772043
79432.823,8460.12815689,-389.010183181
84139.514,8453.89526695,-375.25001968
89125.094,8447.96605885,-362.168880983
94406.088,8442.30908358,-349.973578496
100000,8436.81314217,-338.425506619
105925.373,8431.63860532,-327.564638511
112201.845,8426.72812462,-317.383284079
118850.223,8422.06426248,-307.887918576
125892.541,8417.60150699,-299.047667764
133352.143,8413.36773621,-290.863287202
141253.754,8409.29868941,-283.292050626
149623.566,8405.45416591,-276.349471115
158489.319,8401.74467635,-270.020439573
167880.402,8398.23684852,-264.353467565
177827.941,8394.90320379,-259.266454278
188364.909,8391.66223347,-254.821804166
199526.231,8388.59809241,-250.96711948
211348.904,8385.59484049,-247.659131896
223872.114,8382.7519858,-244.941312745
237137.371,8380.08277635,-242.876495777
251188.643,8377.37301744,-241.442927809
266072.506,8374.86457603,-240.608887434
281838.293,8372.39959809,-240.349678785
298538.262,8370.00311581,-240.770775835
316227.766,8367.70943563,-241.759336166
334965.439,8365.42727539,-243.446410958
354813.389,8363.22156377,-245.80452196
375837.404,8361.11691955,-248.792680492
398107.171,8358.99555926,-252.570714258
421696.503,8356.87138724,-256.986696615
446683.592,8354.83498514,-262.06589687
473151.259,8352.75358355,-267.89495236
501187.234,8350.80257549,-274.609852592
530884.444,8348.99896428,-282.231831789
562341.325,8347.08418452,-290.662762833
595662.144,8345.05680509,-299.812810682
630957.344,8343.00661251,-309.847806732
668343.918,8340.80490635,-320.707902216
707945.784,8338.47786524,-332.483950557
749894.209,8335.94685323,-345.124853115
794328.235,8333.34049068,-358.716219834
841395.142,8330.63994473,-373.223582965
891250.938,8327.65015887,-388.88918824
944060.876,8324.07249251,-405.83802965
1000000,8320.44183295,-424.101379474
1059253.725,8317.32624023,-444.001254771
1122018.454,8313.38418708,-464.656560182
1188502.227,8308.802592,-486.548258754
1258925.412,8305.26380659,-510.411730071
1333521.432,8300.66302453,-535.774411344
1412537.545,8295.35301544,-562.519556492
1496235.656,8287.05348319,-592.547627419
1584893.192,8282.43924055,-621.4616813
1678804.018,8275.37862301,-651.885908739
1778279.41,8266.69921588,-688.289930467
1883649.089,8261.79615395,-720.865599422
1995262.315,8250.54014602,-758.889675579
2113489.04,8243.91367381,-800.405775413
2238721.139,8233.81099031,-844.628566697
2371373.706,8221.1721584,-888.088637146
2511886.432,8208.20190352,-936.174303142
2660725.06,8194.26910996,-991.840272079
2818382.931,8178.4034746,-1042.92452635
2985382.619,8161.77213304,-1097.81649876
3162277.66,8140.66056875,-1155.98185232
3349654.392,8117.53022485,-1217.33035567
3548133.892,8094.05931339,-1283.87609211
3758374.043,8068.55633673,-1352.69529293
3981071.706,8039.17567409,-1422.13711148
4216965.034,8009.85045121,-1494.9214536
4466835.922,7972.56025729,-1573.0991946
4731512.59,7934.19728501,-1654.06886007
5011872.336,7890.80473392,-1740.61228035
5308844.442,7846.25088543,-1827.19000887
5623413.252,7792.61763338,-1918.4419074
5956621.435,7736.47250327,-2013.10271895
6309573.445,7674.1720815,-2110.42675382
6683439.176,7606.60844183,-2210.28557987
7079457.844,7532.57334024,-2312.89568588
7498942.093,7450.75162465,-2417.43554465
7943282.347,7362.14094005,-2525.05720226
8413951.416,7263.60668112,-2633.84416744
8912509.381,7159.1516798,-2741.03647424
9440608.763,7046.52110053,-2851.41774831
10000000,6925.15384884,-2961.2293015
10592537.252,6793.76996168,-3069.54235443
11220184.543,6653.10544784,-3174.3967692
11885022.274,6500.21310867,-3278.18776665
12589254.118,6343.10302213,-3377.30970329
13335214.322,6172.38861311,-3473.03731541
14125375.446,5993.45070607,-3560.71596299
14962356.561,5806.95995571,-3645.85201337
15848931.925,5740.10248689,-3654.97885752
16788040.181,5546.35113291,-3724.91975262
17782794.1,5341.81735246,-3790.26239908
18836490.895,5133.79417332,-3837.3663295
19952623.15,4922.51547459,-3890.76565724
21134890.398,4692.46003873,-3922.51880503
22387211.386,4466.34708619,-3933.10649802
23713737.057,4246.01772863,-3942.32981295
25118864.315,4005.20405516,-3936.05646542
26607250.598,3782.60788444,-3903.53632574
28183829.313,3575.10947431,-3865.99646521
29853826.189,3340.21204662,-3837.80252665
31622776.602,3143.91186973,-3773.15551977
33496543.916,2909.94836576,-3736.42019127
35481338.923,2686.39576037,-3608.68316091
37583740.429,2523.19794832,-3509.14932166
39810717.055,2355.31747,-3416.73096805
42169650.343,2192.12629758,-3319.67937028
44668359.215,2035.3627594,-3222.65898134
47315125.896,1881.37101112,-3116.23988288
50118723.363,1740.78731854,-3007.98134367
53088444.423,1608.19157773,-2898.51625348
56234132.519,1481.52230051,-2787.01454563
59566214.353,1363.91325359,-2673.14084167
63095734.448,1253.09680693,-2562.1877308
66834391.757,1149.20937374,-2448.50832928
70794578.438,1052.21597079,-2335.80947504
74989420.933,961.748769234,-2222.46054207
79432823.472,877.611798787,-2112.88732076
84139514.165,797.159074051,-1999.29073734
89125093.813,725.021063255,-1892.6798369
94406087.629,652.427049835,-1782.51439711
